demand,frequency,probability,ev
0,1,0.0083,0.0000
1,2,0.0165,0.0165
2,3,0.0248,0.0496
3,4,0.0331,0.0992
4,5,0.0413,0.1653
5,6,0.0496,0.2479
6,7,0.0579,0.3471
7,8,0.0661,0.4628
8,9,0.0744,0.5950
9,10,0.0826,0.7438
10,11,0.0909,0.9091
11,10,0.0826,0.9091
12,9,0.0744,0.8926
13,8,0.0661,0.8595
14,7,0.0579,0.8099
15,6,0.0496,0.7438
16,5,0.0413,0.6612
17,4,0.0331,0.5620
18,3,0.0248,0.4463
19,2,0.0165,0.3140
20,1,0.0083,0.1653